time,acceleration,velocity
0,0,0
0.1,0,0
0.2,0,0
0.3,0,0
0.4,0,0
0.5,0,0
0.6,0,0
0.7,0,0
0.8,0,0
0.9,0,0
1,0.0205620000000006,0.00205620000000006
1.1,0.0604940000000017,0.00810560000000023
1.2,0.0986380000000028,0.0179694000000005
1.3,0.134994000000004,0.0314688000000009
1.4,0.169561999999991,0.048425
1.5,0.202342000000003,0.0686592000000003
1.6,0.233334000000004,0.0919926000000007
1.7,0.262538000000005,0.118246400000001
1.8,0.289954000000006,0.147241800000002
1.9,0.315581999999983,0.1788
2,0.46142060869566,0.224942060869566
2.1,0.702386000000014,0.295180660869568
2.2,0.903937652173932,0.385574426086961
2.3,1.06607556521741,0.492181982608702
2.4,1.18879973913037,0.611061956521739
2.5,1.27211017391306,0.738272973913045
2.6,1.31600686956524,0.869873660869569
2.7,1.32048982608697,1.00192264347827
2.8,1.28555904347828,1.13047854782609
2.9,1.21121452173906,1.2516
3,1.21333777173915,1.37293377717391
3.1,1.29893179347828,1.50282695652174
3.2,1.35561657608698,1.63838861413044
3.3,1.38339211956524,1.77672782608696
3.4,1.38225842391297,1.91495366847826
3.5,1.35221548913045,2.05017521739131
3.6,1.29326331521741,2.17950154891305
3.7,1.20540190217392,2.30004173913044
3.8,1.08863125000001,2.40890486413044
3.9,0.942951358695594,2.5032
4,0.84148765909092,2.58734876590909
4.1,0.801521795454558,2.66750094545455
4.2,0.758569159090916,2.74335786136364
4.3,0.712629750000007,2.81462083636364
4.4,0.712629750000007,2.88588381136364
4.5,0.663703568181777,2.95225416818182
4.6,0.611790613636374,3.01343322954546
4.7,0.499004386363637,3.06333366818182
4.8,0.438131113636371,3.10714677954546
4.9,0.374271068181793,3.14457388636364
5,0.338588433566436,3.17843272972028
5.1,0.331048825174833,3.21153761223776
5.2,0.320470867132867,3.24358469895105
5.3,0.306854559440568,3.27427015489511
5.4,0.290199902097878,3.30329014510489
5.5,0.270506895104901,3.33034083461538
5.6,0.247775538461545,3.35511838846154
5.7,0.222005832167831,3.37731897167832
5.8,0.193197776223775,3.3966387493007
5.9,0.161351370629363,3.41277388636364
6,0.13332800992556,3.42610668735619
6.1,0.109662521091813,3.43707293946537
6.2,0.0837609230769187,3.44544903177307
6.3,0.0556232158808934,3.45101135336115
6.4,0.025249399503724,3.45353629331153
6.5,-0.00736052605458948,3.45280024070607
6.6,-0.0422065607940514,3.44857958462666
6.7,-0.0792887047146396,3.4406507141552
6.8,-0.118606957816381,3.42879001837356
6.9,-0.160161320099248,3.41277388636364
7,-0.301637724957562,3.38261011386788
7.1,-0.507971103565379,3.33181300351134
7.2,-0.66394298811546,3.2654187046998
7.3,-0.769553378607819,3.18846336683901
7.4,-0.824802275042402,3.10598313933477
7.5,-0.82968967741937,3.02301417159284
7.6,-0.784215585738548,2.94459261301898
7.7,-0.688380000000004,2.87575461301898
7.8,-0.542182920203729,2.82153632099861
7.9,-0.345624346349722,2.78697388636364
8,-0.189654883500889,2.76800839801355
8.1,-0.111807626256653,2.75682763538788
8.2,-0.0398985168539268,2.75283778370249
8.3,0.0260724447072747,2.75544502817322
8.4,0.140199924305144,2.76946502060373
8.5,0.188356442341813,2.78830066483791
8.6,0.230574812536966,2.81135814609161
8.7,0.266855034890603,2.83804364958067
8.8,0.297197109402703,2.86776336052094
8.9,0.343460032897029,2.90210936381064
9,0.404949172709377,2.94260428108158
9.1,0.45945821568401,2.98855010264998
9.2,0.506987161820929,3.03924881883207
9.3,0.547536011120089,3.09400241994408
9.4,0.581104763581615,3.15211289630224
9.5,0.607693419205382,3.21288223822278
9.6,0.627301977991439,3.27561243602193
9.7,0.639930439939773,3.3396054800159
9.8,0.645578805050353,3.40416336052094
9.9,0.760120043814441,3.48017536490238
10,0.946553605670122,3.5748307254694
10.1,1.07050624484538,3.68188134995393
10.2,1.13197796134023,3.79507914608796
10.3,1.13096875515458,3.90817602160341
10.4,1.06747862628867,4.01492388423228
10.5,0.753055600515466,4.09022944428383
10.6,0.502122703608237,4.14044171464465
10.7,0.188708884020601,4.15931260304671
10.8,-0.0498265312500124,4.15432994992171
10.9,-0.15713446875,4.13861650304671
11,-0.242399718749997,4.11437653117171
11.1,-0.305622281250013,4.08381430304671
11.2,-0.346802156249968,4.04913408742171
11.3,-0.365939343750012,4.01254015304671
11.4,-0.363033843750005,3.97623676867171
11.5,-0.338085656249998,3.94242820304671
11.6,-0.29109478125001,3.91331872492171
11.7,-0.222061218749983,3.89111260304671
11.8,-0.18025290695225,3.87308731235149
11.9,-0.178291317766854,3.8552581805748
12,-0.173219248946634,3.83793625568014
12.1,-0.165036700491576,3.82143258563098
12.2,-0.153743672401676,3.80605821839081
12.3,-0.139340164676973,3.79212420192312
12.4,-0.121826177317415,3.77994158419137
12.5,-0.101201710323036,3.76982141315907
12.6,-0.0774667636938231,3.76207473678969
12.7,-0.0506213374297682,3.75701260304671
12.8,0.0293789218422047,3.75995049523093
12.9,0.152805010001233,3.77523099623106
13,0.26474807161379,3.80170580339243
13.1,0.365208106679851,3.83822661406042
13.2,0.531679097172493,3.89139452377767
13.3,0.5976900525991,3.95116352903758
13.4,0.652217981479204,4.0163853271855
13.5,0.695262883812831,4.08591161556678
13.6,0.726824759599909,4.15859409152677
13.7,0.840724834165849,4.24266657494336
13.8,1.02210085214787,4.34487666015815
13.9,1.16970046053948,4.46184670621209
14,1.28352365934068,4.59019907214616
14.1,1.36357044855137,4.7265561170013
14.2,1.40984082817186,4.86754019981848
14.3,1.42233479820182,5.00977367963867
14.4,1.40105235864138,5.1498789155028
14.5,1.34599350949053,5.28447826645186
14.6,1.25715825074917,5.41019409152677
14.7,1.19031455844158,5.52922554737093
14.8,1.17119740692642,5.64634528806357
14.9,1.15690630735933,5.76203591879951
15,1.14744125974028,5.87678004477353
15.1,1.1428022640692,5.99106027118045
15.2,1.14298932034633,6.10535920321509
15.3,1.14800242857144,6.22015944607223
15.4,1.15784158874461,6.33594360494669
15.5,1.17250680086582,6.45319428503327
15.6,1.191998064935,6.57239409152677
15.7,1.20560582857144,6.69295467438392
15.8,1.21125553015876,6.81408022739979
15.9,1.21861944126985,6.93594217152678
16,1.22769756190478,7.05871192771726
16.1,1.23848989206342,7.1825609169236
16.2,1.25099643174605,7.3076605600982
16.3,1.2652171809524,7.43418227819344
16.4,1.28115213968256,7.5622974921617
16.5,1.29880130793652,7.69217762295535
16.6,1.31816468571421,7.82399409152677
16.7,1.37375302773724,7.9613693943005
16.8,1.44880707088404,8.1062501013889
16.9,1.50043642887269,8.25629374427617
17,1.52864110170318,8.40915785444649
17.1,1.53342108937542,8.56249996338403
17.2,1.51477639188974,8.713977602573
17.3,1.47270700924576,8.86124830349758
17.4,1.40721294144365,9.00196959764194
17.5,1.20595075036491,9.12256467267843
17.6,1.14285100330616,9.23684977300905
17.7,1.14285100330616,9.35113487333967
17.8,1.09285100330616,9.46041997367028
17.9,1.04285100330616,9.5647050740009
18,0.99285100330616,9.66399017433151
18.1,0.94285100330616,9.75827527466213
18.2,0.89285100330616,9.84756037499275
18.3,0.84285100330616,9.93184547532336
18.4,0.79285100330616,10.011130575654
18.5,0.74285100330616,10.0854156759846
18.6,0.69285100330616,10.1547007763152
18.7,0.64285100330616,10.2189858766458
18.8,0.59285100330616,10.2782709769764
18.9,0.54285100330616,10.3325560773071
19,0.49285100330616,10.3818411776377
19.1,0.44285100330616,10.4261262779683
19.2,0.39285100330616,10.4654113782989
19.3,0.34285100330616,10.4996964786295
19.4,0.29285100330616,10.5289815789601
19.5,0.24285100330616,10.5532666792908
19.6,0.19285100330616,10.5725517796214
19.7,0.14285100330616,10.586836879952
19.8,0.0928510033061596,10.5961219802826
19.9,0.0428510033061596,10.6004070806132
20,0,10.6004070806132
20.1,0,10.6004070806132
20.2,0,10.6004070806132
20.3,0,10.6004070806132
20.4,0,10.6004070806132
20.5,0,10.6004070806132
20.6,0,10.6004070806132
20.7,0,10.6004070806132
20.8,0,10.6004070806132
20.9,0,10.6004070806132
21,0,10.6004070806132
21.1,0,10.6004070806132
21.2,0,10.6004070806132
21.3,0,10.6004070806132
21.4,0,10.6004070806132
21.5,0,10.6004070806132
21.6,0,10.6004070806132
21.7,0,10.6004070806132
21.8,0,10.6004070806132
21.9,0,10.6004070806132
22,0,10.6004070806132
22.1,0,10.6004070806132
22.2,0,10.6004070806132
22.3,0,10.6004070806132
22.4,0,10.6004070806132
22.5,0,10.6004070806132
22.6,0,10.6004070806132
22.7,0,10.6004070806132
22.8,0,10.6004070806132
22.9,0,10.6004070806132
23,0,10.6004070806132
23.1,0,10.6004070806132
23.2,0,10.6004070806132
23.3,0,10.6004070806132
23.4,0,10.6004070806132
23.5,0,10.6004070806132
23.6,0,10.6004070806132
23.7,0,10.6004070806132
23.8,0,10.6004070806132
23.9,0,10.6004070806132
24,0,10.6004070806132
24.1,0,10.6004070806132
24.2,0,10.6004070806132
24.3,0,10.6004070806132
24.4,0,10.6004070806132
24.5,0,10.6004070806132
24.6,0,10.6004070806132
24.7,0,10.6004070806132
24.8,0,10.6004070806132
24.9,0,10.6004070806132
25,0,10.6004070806132
25.1,0,10.6004070806132
25.2,0,10.6004070806132
25.3,0,10.6004070806132
25.4,0,10.6004070806132
25.5,0,10.6004070806132
25.6,0,10.6004070806132
25.7,0,10.6004070806132
25.8,0,10.6004070806132
25.9,0,10.6004070806132
26,0,10.6004070806132
26.1,0,10.6004070806132
26.2,0,10.6004070806132
26.3,0,10.6004070806132
26.4,0,10.6004070806132
26.5,0,10.6004070806132
26.6,0,10.6004070806132
26.7,0,10.6004070806132
26.8,0,10.6004070806132
26.9,0,10.6004070806132
27,0,10.6004070806132
27.1,0,10.6004070806132
27.2,0,10.6004070806132
27.3,0,10.6004070806132
27.4,0,10.6004070806132
27.5,0,10.6004070806132
27.6,0,10.6004070806132
27.7,0,10.6004070806132
27.8,0,10.6004070806132
27.9,0,10.6004070806132
28,0,10.6004070806132
28.1,0,10.6004070806132
28.2,0,10.6004070806132
28.3,0,10.6004070806132
28.4,0,10.6004070806132
28.5,0,10.6004070806132
28.6,0,10.6004070806132
28.7,0,10.6004070806132
28.8,0,10.6004070806132
28.9,0,10.6004070806132
29,0,10.6004070806132
29.1,0,10.6004070806132
29.2,0,10.6004070806132
29.3,0,10.6004070806132
29.4,0,10.6004070806132
29.5,0,10.6004070806132
29.6,0,10.6004070806132
29.7,0,10.6004070806132
29.8,0,10.6004070806132
29.9,0,10.6004070806132
30,-0.00714899669384038,10.6004070806132
30.1,-0.0371489966938404,10.5966921809438
30.2,-0.0671489966938404,10.5899772812744
30.3,-0.0971489966938404,10.5802623816051
30.4,-0.12714899669384,10.5675474819357
30.5,-0.15714899669384,10.5518325822663
30.6,-0.18714899669384,10.5331176825969
30.7,-0.21714899669384,10.5114027829275
30.8,-0.24714899669384,10.4866878832581
30.9,-0.27714899669384,10.4589729835888
31,-0.30714899669384,10.4282580839194
31.1,-0.33714899669384,10.39454318425
31.2,-0.36714899669384,10.3578282845806
31.3,-0.397148996693841,10.3181133849112
31.4,-0.427148996693841,10.2753984852418
31.5,-0.457148996693841,10.2296835855725
31.6,-0.487148996693841,10.1809686859031
31.7,-0.517148996693841,10.1292537862337
31.8,-0.547148996693841,10.0745388865643
31.9,-0.577148996693841,10.0168239868949
32,-0.607148996693841,9.95610908722553
32.1,-0.637148996693841,9.89239418755615
32.2,-0.667148996693841,9.82567928788677
32.3,-0.697148996693841,9.75596438821738
32.4,-0.727148996693841,9.683249488548
32.5,-0.757148996693841,9.60753458887862
32.6,-0.787148996693841,9.52881968920923
32.7,-0.817148996693841,9.44710478953985
32.8,-0.847148996693841,9.36238988987046
32.9,-0.877148996693841,9.27467499020108
33,-0.907148996693841,9.18396009053169
33.1,-0.937148996693841,9.09024519086231
33.2,-0.967148996693841,8.99353029119293
33.3,-0.997148996693841,8.89381539152354
33.4,-1.02714899669384,8.79110049185416
33.5,-1.05714899669384,8.68538559218477
33.6,-1.08714899669384,8.57667069251539
33.7,-1.11714899669384,8.46495579284601
33.8,-1.14714899669384,8.35024089317662
33.9,-1.17714899669384,8.23252599350724
34,-1.20714899669384,8.11181109383785
34.1,-1.23714899669384,7.98809619416847
34.2,-1.26714899669384,7.86138129449909
34.3,-1.29714899669384,7.7316663948297
34.4,-1.32714899669384,7.59895149516032
34.5,-1.35714899669384,7.46323659549093
34.6,-1.38714899669384,7.32452169582155
34.7,-1.41714899669384,7.18280679615216
34.8,-1.44714899669384,7.03809189648278
34.9,-1.47714899669384,6.8903769968134
35,-1.50714899669384,6.73966209714401
35.1,-1.53714899669384,6.58594719747463
35.2,-1.56714899669384,6.42923229780524
35.3,-1.59714899669384,6.26951739813586
35.4,-1.62714899669384,6.10680249846648
35.5,-1.65714899669384,5.94108759879709
35.6,-1.68714899669384,5.77237269912771
35.7,-1.71714899669384,5.60065779945832
35.8,-1.74714899669384,5.42594289978894
35.9,-1.77714899669384,5.24822800011956
36,-1.80714899669384,5.06751310045017
36.1,-1.83714899669384,4.88379820078079
36.2,-1.86714899669384,4.6970833011114
36.3,-1.89714899669384,4.50736840144202
36.4,-1.92714899669384,4.31465350177263
36.5,-1.95714899669384,4.11893860210325
36.6,-1.98714899669384,3.92022370243387
36.7,-2.01714899669384,3.71850880276448
36.8,-2.04714899669384,3.5137939030951
36.9,-2.07714899669384,3.30607900342571
37,-2.10714899669384,3.09536410375633
37.1,-2.13714899669384,2.88164920408694
37.2,-2.16714899669384,2.66493430441756
37.3,-2.19714899669384,2.44521940474818
37.4,-2.22714899669384,2.22250450507879
37.5,-2.25714899669384,1.99678960540941
37.6,-2.28714899669384,1.76807470574002
37.7,-2.31714899669384,1.53635980607064
37.8,-2.34714899669384,1.30164490640126
37.9,-2.37714899669384,1.06393000673187
38,-2.40714899669384,0.823215107062488
38.1,-2.43714899669384,0.579500207393105
38.2,-2.46714899669384,0.332785307723721
38.3,-2.49714899669384,0.0830704080543369
38.4,-2.49714899669384,0
